* Measurement data measured by REW V5.20 Beta 47
* Source:
* Format:
* Dated:
* REW Settings:
*  C-weighting compensation: Off
*  Target level: 
* Note: ; 
* Measurement: R
* Smoothing: None
* Frequency Step: 
* Start Frequency: 20.000 Hz
*
* Freq(Hz)	SPL(dB)	
20.0000	7.0275
20.3000	7.079
20.6000	7.1306
20.9000	7.1564
21.2000	7.208
21.4000	7.208
21.8000	7.3112
22.0000	7.3112
22.4000	7.3886
22.7000	7.4402
23.0000	7.4402
23.3000	7.4402
23.6000	7.466
24.0000	7.4918
24.3000	7.5434
24.7000	7.5434
25.0000	7.6208
25.4000	7.7239
25.8000	7.7755
26.2000	7.8271
26.5000	7.8529
26.9000	7.9045
27.2000	7.9045
27.6000	7.9561
28.0000	7.9561
28.5000	7.9561
29.0000	8.0077
29.5000	8.0335
30.0000	8.1883
30.4000	8.2141
30.7000	8.2399
31.1000	8.3172
31.5000	8.3172
32.0000	8.3688
32.5000	8.3688
33.0000	8.3688
33.5000	8.4204
34.0000	8.4204
34.5000	8.472
35.0000	8.5236
35.5000	8.5236
36.0000	8.5752
36.5000	8.5752
37.0000	8.6268
37.5000	8.6268
38.2000	8.6268
38.7000	8.6784
39.5000	8.73
40.0000	8.73
40.6000	8.73
41.2000	8.7816
41.8000	8.7816
42.5000	8.7816
43.1000	8.8332
43.7000	8.8847
44.4000	8.9363
45.0000	8.9363
45.5000	8.9879
46.2000	8.9879
46.8000	8.9879
47.5000	8.9879
48.2000	8.9879
48.7000	8.9879
49.4000	9.0395
50.0000	9.0911
50.8000	9.0911
51.5000	9.0911
52.2000	9.0911
53.0000	9.1427
53.8000	9.1427
54.5000	9.1427
55.2000	9.1427
56.0000	9.1427
57.0000	9.1427
58.0000	9.1427
59.0000	9.1427
60.0000	9.1685
60.8000	9.2201
61.5000	9.2459
62.2000	9.2459
63.0000	9.2459
64.0000	9.1943
65.0000	9.2459
66.0000	9.2459
67.0000	9.2459
68.0000	9.2459
69.0000	9.2459
70.0000	9.2459
71.0000	9.1685
72.0000	9.1427
73.0000	9.1427
74.0000	9.1943
75.0000	9.1943
76.2000	9.1943
77.5000	9.1685
78.8000	9.1427
80.0000	9.0911
81.2000	9.0911
82.5000	9.0911
83.8000	9.1427
85.0000	9.1427
86.2000	9.0911
87.5000	9.0653
88.5000	9.0395
90.0000	9.0395
91.2000	9.0395
92.5000	9.0137
93.8000	8.9879
95.0000	8.9363
96.2000	8.9363
97.5000	8.9105
98.8000	8.8847
100.0000	8.859
101.5000	8.8074
103.0000	8.7816
104.4000	8.73
106.0000	8.73
107.5000	8.7042
109.0000	8.6784
110.6000	8.6268
112.0000	8.5752
113.8000	8.4978
115.0000	8.472
117.2000	8.3946
118.0000	8.3946
120.6000	8.343
122.0000	8.2914
124.1000	8.2656
125.0000	8.2399
126.5000	8.1883
128.0000	8.1109
131.5000	8.0335
132.0000	7.9819
134.0000	7.9303
136.0000	7.9045
138.0000	7.8529
140.0000	7.8271
143.0000	7.6981
145.0000	7.6208
147.5000	7.5692
150.0000	7.5176
152.5000	7.466
155.0000	7.3886
157.5000	7.3112
160.0000	7.208
162.5000	7.1564
165.0000	7.1048
167.5000	7.0532
170.0000	6.9759
172.5000	6.9243
175.0000	6.8469
177.5000	6.7437
180.0000	6.7179
182.5000	6.6663
185.0000	6.5889
187.5000	6.5631
190.0000	6.5115
192.5000	6.3826
195.0000	6.3568
197.5000	6.2794
200.0000	6.202
203.0000	6.1246
206.0000	6.073
209.0000	5.9956
212.0000	5.9182
214.0000	5.8924
218.0000	5.7635
220.0000	5.7377
224.0000	5.6603
227.0000	5.5571
230.0000	5.4797
233.0000	5.4023
236.0000	5.3507
240.0000	5.2991
243.0000	5.2733
247.0000	5.1444
250.0000	5.0928
254.0000	4.9896
258.0000	4.9122
262.0000	4.8348
265.0000	4.7832
269.0000	4.7058
272.0000	4.5769
276.0000	4.4995
280.0000	4.4479
285.0000	4.2673
290.0000	4.2157
295.0000	4.0867
300.0000	3.9578
304.0000	3.8546
307.0000	3.7772
311.0000	3.674
315.0000	3.5966
320.0000	3.4934
325.0000	3.416
330.0000	3.2871
335.0000	3.2097
340.0000	3.1323
345.0000	2.9775
350.0000	2.9517
355.0000	2.9259
360.0000	2.9001
365.0000	2.8743
370.0000	2.8485
375.0000	2.8227
382.0000	2.7454
387.0000	2.6938
395.0000	2.6164
400.0000	2.5648
406.0000	2.4616
412.0000	2.41
418.0000	2.3068
425.0000	2.2294
431.0000	2.1778
437.0000	2.0489
444.0000	1.9715
450.0000	1.8941
455.0000	1.8167
462.0000	1.7135
468.0000	1.6361
475.0000	1.4814
482.0000	1.3782
487.0000	1.3524
494.0000	1.275
500.0000	1.2234
508.0000	1.1202
515.0000	1.0428
522.0000	0.9654
530.0000	0.9139
538.0000	0.8623
545.0000	0.8365
552.0000	0.7591
560.0000	0.7075
570.0000	0.6559
580.0000	0.5785
590.0000	0.5269
600.0000	0.3979
608.0000	0.3463
615.0000	0.2948
622.0000	0.2432
630.0000	0.14
640.0000	0.0884
650.0000	-0.0148
660.0000	-0.0664
670.0000	-0.1438
680.0000	-0.1438
690.0000	-0.1696
700.0000	-0.1954
710.0000	-0.247
720.0000	-0.247
730.0000	-0.2985
740.0000	-0.2985
750.0000	-0.3501
762.0000	-0.4017
775.0000	-0.4275
788.0000	-0.4533
800.0000	-0.4791
812.0000	-0.5049
825.0000	-0.5565
838.0000	-0.5565
850.0000	-0.5565
862.0000	-0.5049
875.0000	-0.5049
885.0000	-0.4791
900.0000	-0.4533
912.0000	-0.4017
925.0000	-0.4017
938.0000	-0.3501
950.0000	-0.3501
962.0000	-0.2985
975.0000	-0.2985
988.0000	-0.247
1000.0000	-0.2212
1015.0000	-0.1438
1030.0000	-0.0664
1044.0000	-0.0148
1060.0000	0.0368
1075.0000	0.1142
1090.0000	0.1658
1106.0000	0.1658
1120.0000	0.1916
1138.0000	0.269
1150.0000	0.2948
1172.0000	0.5011
1180.0000	0.5785
1206.0000	0.7075
1220.0000	0.8365
1241.0000	1.017
1250.0000	1.0686
1265.0000	1.1718
1280.0000	1.2234
1315.0000	1.4298
1320.0000	1.4298
1340.0000	1.533
1360.0000	1.6877
1380.0000	1.7909
1400.0000	1.9199
1430.0000	2.0231
1450.0000	2.1005
1475.0000	2.2036
1500.0000	2.3584
1525.0000	2.4616
1550.0000	2.6164
1575.0000	2.7712
1600.0000	2.9001
1625.0000	3.0291
1650.0000	3.1839
1675.0000	3.3387
1700.0000	3.4934
1725.0000	3.674
1750.0000	3.8288
1775.0000	3.9836
1800.0000	4.1125
1825.0000	4.3447
1850.0000	4.4995
1875.0000	4.6542
1900.0000	4.7832
1925.0000	5.0154
1950.0000	5.1444
1975.0000	5.2475
2000.0000	5.4281
2030.0000	5.5829
2060.0000	5.7119
2090.0000	5.8666
2120.0000	5.944
2140.0000	6.073
2180.0000	6.2278
2200.0000	6.2536
2240.0000	6.3052
2270.0000	6.3568
2300.0000	6.4341
2330.0000	6.4599
2360.0000	6.5115
2400.0000	6.4857
2430.0000	6.4341
2470.0000	6.3826
2500.0000	6.3568
2540.0000	6.2794
2580.0000	6.1762
2620.0000	6.073
2650.0000	5.9698
2690.0000	5.8408
2720.0000	5.7635
2760.0000	5.6345
2800.0000	5.5055
2850.0000	5.3765
2900.0000	5.196
2950.0000	5.0928
3000.0000	4.938
3040.0000	4.8864
3070.0000	4.8348
3110.0000	4.7832
3150.0000	4.68
3200.0000	4.6542
3250.0000	4.6027
3300.0000	4.6027
3350.0000	4.6027
3400.0000	4.6027
3450.0000	4.6542
3500.0000	4.6542
3550.0000	4.7832
3600.0000	4.8864
3650.0000	5.0412
3700.0000	5.1186
3750.0000	5.3249
3820.0000	5.5313
3870.0000	5.7893
3950.0000	6.1504
4000.0000	6.2794
4060.0000	6.5631
4120.0000	6.8211
4180.0000	7.0017
4250.0000	7.1048
4310.0000	7.1822
4370.0000	7.1564
4440.0000	6.9243
4500.0000	6.6147
4550.0000	6.2536
4620.0000	5.8151
4680.0000	5.4539
4750.0000	4.809
4820.0000	4.2673
4870.0000	3.8804
4940.0000	3.2097
5000.0000	2.6938
5080.0000	2.2036
5150.0000	1.8683
5220.0000	1.3008
5300.0000	0.8881
5380.0000	0.3721
5450.0000	-0.1438
5520.0000	-0.3759
5600.0000	-0.8661
5700.0000	-1.5109
5800.0000	-2.1558
5900.0000	-3.0071
6000.0000	-3.523
6080.0000	-3.91
6150.0000	-4.1163
6220.0000	-4.3485
6300.0000	-4.7096
6400.0000	-4.8902
6500.0000	-4.9934
6600.0000	-4.9676
6700.0000	-4.787
6800.0000	-4.4775
6900.0000	-3.8584
7000.0000	-3.4198
7100.0000	-2.4396
7200.0000	-1.7431
7300.0000	0.8107
7400.0000	2.281
7500.0000	3.932
7620.0000	3.932
7750.0000	3.545
7880.0000	0.4753
8000.0000	-0.2727
8120.0000	-1.3562
8250.0000	-3.7552
8380.0000	-4.2453
8500.0000	-5.045
8620.0000	-5.7157
8750.0000	-6.5411
8850.0000	-7.057
9000.0000	-7.5729
9120.0000	-8.0115
9250.0000	-8.321
9380.0000	-8.4758
9500.0000	-8.5016
9620.0000	-8.5274
9750.0000	-8.579
9880.0000	-8.6048
10000.0000	-8.579
10150.0000	-8.5274
10300.0000	-8.3726
10440.0000	-8.2952
10600.0000	-8.0115
10750.0000	-7.7277
10900.0000	-7.5214
11060.0000	-7.4698
11200.0000	-7.4956
11380.0000	-7.7019
11500.0000	-8.192
11720.0000	-8.8885
11800.0000	-9.1465
12060.0000	-9.0433
12200.0000	-8.45
12410.0000	-7.5987
12500.0000	-5.9994
12650.0000	-4.4259
12800.0000	-3.9615
13150.0000	-2.9297
13200.0000	-2.9297
13400.0000	-2.8781
13600.0000	-2.9555
13800.0000	-2.9297
14000.0000	-2.5686
14300.0000	-2.0011
14500.0000	-1.3046
14750.0000	-0.1696
15000.0000	1.6361
15250.0000	2.7712
15500.0000	3.1839
15750.0000	2.6422
16000.0000	1.5845
16250.0000	-0.9434
16500.0000	-1.8463
16750.0000	-4.2195
17000.0000	-3.9357
17250.0000	-5.045
17500.0000	-5.6641
17750.0000	-6.1284
18000.0000	-6.3348
18250.0000	-6.3605
18500.0000	-6.6185
18750.0000	-7.3408
19000.0000	-9.5076
19250.0000	-7.8309
19500.0000	-7.8309
19750.0000	-7.8309
